n     y(n)
0     -6.000000
1     -11.500000
2     -16.500000
3     -21.000000
4     -25.000000
5     -28.500000
6     -31.500000
7     -34.000000
8     -36.000000
9     -37.500000
10    -38.500000
11    -39.000000
12    -39.000000
13    -38.500000
14    -37.500000
15    -36.000000
16    -34.000000
17    -31.500000
18    -28.500000
19    -25.000000
20    -21.000000
