Time(sec)     	Capacitor Charge(C)   	Capacitor Voltage(V)   	Current(A)     	Capacitor Energy(J)       	Inductor Energy(J)
0.0000   	    0.010000   	          200.000000   	           -0.000000   	             1.000000   	         -0.000000
0.0001   	    0.009990   	          199.800033   	           -8.941291   	             0.998001   	          0.001999
0.0002   	    0.009960   	          199.200533   	          -17.864702   	             0.992021   	          0.007979
0.0003   	    0.009910   	          198.202698   	          -26.752390   	             0.982108   	          0.017892
0.0004   	    0.009840   	          196.808524   	          -35.586582   	             0.968340   	          0.031660
0.0005   	    0.009751   	          195.020799   	          -44.349612   	             0.950828   	          0.049172
0.0006   	    0.009642   	          192.843096   	          -53.023958   	             0.929711   	          0.070289
0.0007   	    0.009514   	          190.279772   	          -61.592274   	             0.905160   	          0.094840
0.0008   	    0.009367   	          187.335952   	          -70.037426   	             0.877369   	          0.122631
0.0009   	    0.009201   	          184.017522   	          -78.342526   	             0.846561   	          0.153439
0.0010   	    0.009017   	          180.331119   	          -86.490968   	             0.812983   	          0.187017
0.0011   	    0.008814   	          176.284113   	          -94.466456   	             0.776902   	          0.223098
0.0012   	    0.008594   	          171.884598   	         -102.253043   	             0.738608   	          0.261392
0.0013   	    0.008357   	          167.141372   	         -109.835158   	             0.698406   	          0.301594
0.0014   	    0.008103   	          162.063918   	         -117.197639   	             0.656618   	          0.343382
0.0015   	    0.007833   	          156.662390   	         -124.325764   	             0.613578   	          0.386422
0.0016   	    0.007547   	          150.947590   	         -131.205279   	             0.569629   	          0.430371
0.0017   	    0.007247   	          144.930944   	         -137.822427   	             0.525124   	          0.474876
0.0018   	    0.006931   	          138.624486   	         -144.163976   	             0.480419   	          0.519581
0.0019   	    0.006602   	          132.040824   	         -150.217245   	             0.435869   	          0.564131
0.0020   	    0.006260   	          125.193125   	         -155.970130   	             0.391833   	          0.608167
0.0021   	    0.005905   	          118.095081   	         -161.411127   	             0.348661   	          0.651339
0.0022   	    0.005538   	          110.760887   	         -166.529355   	             0.306699   	          0.693301
0.0023   	    0.005160   	          103.205207   	         -171.314580   	             0.266283   	          0.733717
0.0024   	    0.004772   	           95.443152   	         -175.757232   	             0.227735   	          0.772265
0.0025   	    0.004375   	           87.490242   	         -179.848429   	             0.191364   	          0.808636
0.0026   	    0.003968   	           79.362381   	         -183.579989   	             0.157460   	          0.842540
0.0027   	    0.003554   	           71.075821   	         -186.944451   	             0.126294   	          0.873706
0.0028   	    0.003132   	           62.647134   	         -189.935085   	             0.098117   	          0.901883
0.0029   	    0.002705   	           54.093173   	         -192.545913   	             0.073152   	          0.926848
0.0030   	    0.002272   	           45.431044   	         -194.771713   	             0.051599   	          0.948401
0.0031   	    0.001834   	           36.678068   	         -196.608035   	             0.033632   	          0.966368
0.0032   	    0.001393   	           27.851748   	         -198.051206   	             0.019393   	          0.980607
0.0033   	    0.000948   	           18.969734   	         -199.098341   	             0.008996   	          0.991004
0.0034   	    0.000502   	           10.049786   	         -199.747345   	             0.002525   	          0.997475
0.0035   	    0.000055   	            1.109743   	         -199.996921   	             0.000031   	          0.999969
0.0036   	   -0.000392   	           -7.832520   	         -199.846570   	             0.001534   	          0.998466
0.0037   	   -0.000838   	          -16.759120   	         -199.296593   	             0.007022   	          0.992978
0.0038   	   -0.001283   	          -25.652208   	         -198.348089   	             0.016451   	          0.983549
0.0039   	   -0.001725   	          -34.494000   	         -197.002954   	             0.029746   	          0.970254
0.0040   	   -0.002163   	          -43.266815   	         -195.263880   	             0.046800   	          0.953200
0.0041   	   -0.002598   	          -51.953111   	         -193.134343   	             0.067478   	          0.932522
0.0042   	   -0.003027   	          -60.535518   	         -190.618601   	             0.091614   	          0.908386
0.0043   	   -0.003450   	          -68.996874   	         -187.721686   	             0.119014   	          0.880986
0.0044   	   -0.003866   	          -77.320260   	         -184.449390   	             0.149461   	          0.850539
0.0045   	   -0.004274   	          -85.489031   	         -180.808257   	             0.182709   	          0.817291
0.0046   	   -0.004674   	          -93.486852   	         -176.805567   	             0.218495   	          0.781505
0.0047   	   -0.005065   	         -101.297730   	         -172.449325   	             0.256531   	          0.743469
0.0048   	   -0.005445   	         -108.906047   	         -167.748242   	             0.296513   	          0.703487
0.0049   	   -0.005815   	         -116.296589   	         -162.711719   	             0.338122   	          0.661878
0.0050   	   -0.006173   	         -123.454575   	         -157.349826   	             0.381026   	          0.618974
0.0051   	   -0.006518   	         -130.365694   	         -151.673286   	             0.424880   	          0.575120
0.0052   	   -0.006851   	         -137.016125   	         -145.693451   	             0.469335   	          0.530665
0.0053   	   -0.007170   	         -143.392569   	         -139.422276   	             0.514036   	          0.485964
0.0054   	   -0.007474   	         -149.482276   	         -132.872304   	             0.558624   	          0.441376
0.0055   	   -0.007764   	         -155.273068   	         -126.056631   	             0.602743   	          0.397257
0.0056   	   -0.008038   	         -160.753366   	         -118.988887   	             0.646041   	          0.353959
0.0057   	   -0.008296   	         -165.912211   	         -111.683205   	             0.688172   	          0.311828
0.0058   	   -0.008537   	         -170.739286   	         -104.154194   	             0.728798   	          0.271202
0.0059   	   -0.008761   	         -175.224940   	          -96.416909   	             0.767594   	          0.232406
0.0060   	   -0.008968   	         -179.360202   	          -88.486823   	             0.804252   	          0.195748
0.0061   	   -0.009157   	         -183.136804   	          -80.379792   	             0.838477   	          0.161523
0.0062   	   -0.009327   	         -186.547193   	          -72.112029   	             0.869996   	          0.130004
0.0063   	   -0.009479   	         -189.584550   	          -63.700065   	             0.898558   	          0.101442
0.0064   	   -0.009612   	         -192.242801   	          -55.160723   	             0.923932   	          0.076068
0.0065   	   -0.009726   	         -194.516631   	          -46.511077   	             0.945918   	          0.054082
0.0066   	   -0.009820   	         -196.401492   	          -37.768425   	             0.964339   	          0.035661
0.0067   	   -0.009895   	         -197.893616   	          -28.950249   	             0.979047   	          0.020953
0.0068   	   -0.009950   	         -198.990018   	          -20.074181   	             0.989926   	          0.010074
0.0069   	   -0.009984   	         -199.688507   	          -11.157973   	             0.996887   	          0.003113
0.0070   	   -0.009999   	         -199.987685   	           -2.219451   	             0.999877   	          0.000123
0.0071   	   -0.009994   	         -199.886954   	            6.723508   	             0.998870   	          0.001130
0.0072   	   -0.009969   	         -199.386516   	           15.653022   	             0.993875   	          0.006125
0.0073   	   -0.009924   	         -198.487372   	           24.551236   	             0.984931   	          0.015069
0.0074   	   -0.009860   	         -197.191319   	           33.400355   	             0.972110   	          0.027890
0.0075   	   -0.009775   	         -195.500949   	           42.182685   	             0.955516   	          0.044484
0.0076   	   -0.009671   	         -193.419642   	           50.880664   	             0.935279   	          0.064721
0.0077   	   -0.009548   	         -190.951561   	           59.476898   	             0.911562   	          0.088438
0.0078   	   -0.009405   	         -188.101640   	           67.954198   	             0.884556   	          0.115444
0.0079   	   -0.009244   	         -184.875578   	           76.295613   	             0.854474   	          0.145526
0.0080   	   -0.009064   	         -181.279827   	           84.484461   	             0.821559   	          0.178441
0.0081   	   -0.008866   	         -177.321577   	           92.504369   	             0.786074   	          0.213926
0.0082   	   -0.008650   	         -173.008743   	          100.339299   	             0.748301   	          0.251699
0.0083   	   -0.008417   	         -168.349949   	          107.973584   	             0.708543   	          0.291457
0.0084   	   -0.008168   	         -163.354511   	          115.391957   	             0.667117   	          0.332883
0.0085   	   -0.007902   	         -158.032418   	          122.579586   	             0.624356   	          0.375644
0.0086   	   -0.007620   	         -152.394313   	          129.522095   	             0.580601   	          0.419399
0.0087   	   -0.007323   	         -146.451471   	          136.205604   	             0.536201   	          0.463799
0.0088   	   -0.007011   	         -140.215774   	          142.616747   	             0.491512   	          0.508488
0.0089   	   -0.006685   	         -133.699693   	          148.742704   	             0.446890   	          0.553110
0.0090   	   -0.006346   	         -126.916257   	          154.571226   	             0.402693   	          0.597307
0.0091   	   -0.005994   	         -119.879030   	          160.090656   	             0.359275   	          0.640725
0.0092   	   -0.005630   	         -112.602086   	          165.289958   	             0.316981   	          0.683019
0.0093   	   -0.005255   	         -105.099974   	          170.158736   	             0.276150   	          0.723850
0.0094   	   -0.004869   	          -97.387698   	          174.687253   	             0.237109   	          0.762891
0.0095   	   -0.004474   	          -89.480679   	          178.866453   	             0.200170   	          0.799830
0.0096   	   -0.004070   	          -81.394728   	          182.687980   	             0.165628   	          0.834372
0.0097   	   -0.003657   	          -73.146016   	          186.144193   	             0.133758   	          0.866242
0.0098   	   -0.003238   	          -64.751035   	          189.228178   	             0.104817   	          0.895183
0.0099   	   -0.002811   	          -56.226574   	          191.933771   	             0.079036   	          0.920964
0.0100   	   -0.002379   	          -47.589678   	          194.255560   	             0.056619   	          0.943381
0.0101   	   -0.001943   	          -38.857619   	          196.188902   	             0.037748   	          0.962252
0.0102   	   -0.001502   	          -30.047858   	          197.729933   	             0.022572   	          0.977428
0.0103   	   -0.001059   	          -21.178011   	          198.875569   	             0.011213   	          0.988787
0.0104   	   -0.000613   	          -12.265815   	          199.623520   	             0.003761   	          0.996239
0.0105   	   -0.000166   	           -3.329092   	          199.972291   	             0.000277   	          0.999723
0.0106   	    0.000281   	            5.614289   	          199.921184   	             0.000788   	          0.999212
0.0107   	    0.000727   	           14.546443   	          199.470301   	             0.005290   	          0.994710
0.0108   	    0.001172   	           23.449508   	          198.620544   	             0.013747   	          0.986253
0.0109   	    0.001615   	           32.305683   	          197.373612   	             0.026091   	          0.973909
0.0110   	    0.002055   	           41.097257   	          195.731999   	             0.042225   	          0.957775
0.0111   	    0.002490   	           49.806650   	          193.698987   	             0.062018   	          0.937982
0.0112   	    0.002921   	           58.416447   	          191.278642   	             0.085312   	          0.914688
0.0113   	    0.003345   	           66.909430   	          188.475803   	             0.111922   	          0.888078
0.0114   	    0.003763   	           75.268616   	          185.296075   	             0.141634   	          0.858366
0.0115   	    0.004174   	           83.477291   	          181.745817   	             0.174211   	          0.825789
0.0116   	    0.004576   	           91.519038   	          177.832128   	             0.209393   	          0.790607
0.0117   	    0.004969   	           99.377778   	          173.562834   	             0.246899   	          0.753101
0.0118   	    0.005352   	          107.037796   	          168.946472   	             0.286427   	          0.713573
0.0119   	    0.005724   	          114.483774   	          163.992273   	             0.327663   	          0.672337
0.0120   	    0.006085   	          121.700822   	          158.710144   	             0.370277   	          0.629723
0.0121   	    0.006434   	          128.674509   	          153.110649   	             0.413928   	          0.586072
0.0122   	    0.006770   	          135.390890   	          147.204982   	             0.458267   	          0.541733
0.0123   	    0.007092   	          141.836535   	          141.004955   	             0.502940   	          0.497060
0.0124   	    0.007400   	          147.998553   	          134.522965   	             0.547589   	          0.452411
0.0125   	    0.007693   	          153.864624   	          127.771974   	             0.591858   	          0.408142
0.0126   	    0.007971   	          159.423017   	          120.765482   	             0.635392   	          0.364608
0.0127   	    0.008233   	          164.662617   	          113.517499   	             0.677844   	          0.322156
0.0128   	    0.008479   	          169.572947   	          106.042519   	             0.718875   	          0.281125
0.0129   	    0.008707   	          174.144187   	           98.355489   	             0.758155   	          0.241845
0.0130   	    0.008918   	          178.367197   	           90.471780   	             0.795371   	          0.204629
0.0131   	    0.009112   	          182.233532   	           82.407159   	             0.830227   	          0.169773
0.0132   	    0.009287   	          185.735461   	           74.177750   	             0.862442   	          0.137558
0.0133   	    0.009443   	          188.865980   	           65.800011   	             0.891759   	          0.108241
0.0134   	    0.009581   	          191.618831   	           57.290694   	             0.917944   	          0.082056
0.0135   	    0.009699   	          193.988508   	           48.666814   	             0.940789   	          0.059211
0.0136   	    0.009799   	          195.970272   	           39.945617   	             0.960109   	          0.039891
0.0137   	    0.009878   	          197.560162   	           31.144542   	             0.975750   	          0.024250
0.0138   	    0.009938   	          198.754996   	           22.281189   	             0.987589   	          0.012411
0.0139   	    0.009978   	          199.552388   	           13.373280   	             0.995529   	          0.004471
0.0140   	    0.009998   	          199.950740   	            4.438630   	             0.999507   	          0.000493
0.0141   	    0.009997   	          199.949258   	           -4.504897   	             0.999493   	          0.000507
0.0142   	    0.009977   	          199.547944   	          -13.439415   	             0.995485   	          0.004515
0.0143   	    0.009937   	          198.747601   	          -22.347059   	             0.987515   	          0.012485
0.0144   	    0.009877   	          197.549829   	          -31.210016   	             0.975648   	          0.024352
0.0145   	    0.009798   	          195.957023   	          -40.010563   	             0.959979   	          0.040021
0.0146   	    0.009699   	          193.972368   	          -48.731103   	             0.940632   	          0.059368
0.0147   	    0.009580   	          191.599833   	          -57.354197   	             0.917762   	          0.082238
0.0148   	    0.009442   	          188.844163   	          -65.862601   	             0.891553   	          0.108447
0.0149   	    0.009286   	          185.710867   	          -74.239303   	             0.862213   	          0.137787
0.0150   	    0.009110   	          182.206211   	          -82.467550   	             0.829978   	          0.170022
0.0151   	    0.008917   	          178.337203   	          -90.530890   	             0.795104   	          0.204896
0.0152   	    0.008706   	          174.111581   	          -98.413198   	             0.757871   	          0.242129
0.0153   	    0.008477   	          169.537793   	         -106.098712   	             0.718577   	          0.281423
0.0154   	    0.008231   	          164.624986   	         -113.572065   	             0.677535   	          0.322465
0.0155   	    0.007969   	          159.382984   	         -120.818311   	             0.635073   	          0.364927
0.0156   	    0.007691   	          153.822270   	         -127.822961   	             0.591532   	          0.408468
0.0157   	    0.007398   	          147.953962   	         -134.572008   	             0.547259   	          0.452741
0.0158   	    0.007089   	          141.789795   	         -141.051955   	             0.502609   	          0.497391
0.0159   	    0.006767   	          135.342096   	         -147.249845   	             0.457937   	          0.542063
0.0160   	    0.006431   	          128.623758   	         -153.153285   	             0.413602   	          0.586398
0.0161   	    0.006082   	          121.648216   	         -158.750470   	             0.369957   	          0.630043
0.0162   	    0.005721   	          114.429417   	         -164.030206   	             0.327352   	          0.672648
0.0163   	    0.005349   	          106.981798   	         -168.981937   	             0.286128   	          0.713872
0.0164   	    0.004966   	           99.320251   	         -173.595760   	             0.246613   	          0.753387
0.0165   	    0.004573   	           91.460096   	         -177.862449   	             0.209124   	          0.790876
0.0166   	    0.004171   	           83.417052   	         -181.773473   	             0.173960   	          0.826040
